# *CALIBRATION************
# Voff:  -0.000557, -0.000502, 0.000355
# Oe*Vref/V:  18766.300781, 19118.269531, 18920.400390
# mV/Vref/Oe:  0.053287, 0.052306, 0.052853
# Hrel:  0.000000, 0.000000, 0.000000
# ADC Vref:  4.000000
# ADC Bits:  16
# ADC samples:  10
# ADC Speed:  4
# Linearization
# A0:  0.000000, 0.000000, 0.000000
# A1:  1.000000, 1.000000, 1.000000
# A2:  0.000000, 0.000000, 0.000000
# A3:  0.222500, 0.222500, 0.222500
# A4:  0.000000, 0.000000, 0.000000
# A5:  3.403000, 3.403000, 3.403000
# Orthogonalization
# 1.000000, 0.000000, 0.000000
# 0.000000, 1.000000, 0.000000
# 0.000000, 0.000000, 1.000000
# EEPROM Cal Valid, Valid, Valid
# EEPROM Lin Valid, Valid, Valid
# EEPROM Ortho Not Valid
# Sensor ID:   USB25103-1715507101             
# Software Version:  MDTUSBMAG3D.V9.20220510
# ************************
# 
# SENSOR_NB_SAMPLE: 10 
# SENSOR_GAIN: 1 
# SENSOR_READ_DELAY: 0.7 
# SENSOR_Oe_mT: 0.1 
# working dist: 10 mm
# Rotation step angle: 4.8°
# sensor pos #1: 15 mm
#
# angle[°]; X1_magn [mT]; Y1_magn [mT]; Z1_magn [mT]
  0.0;   23.527000;   -0.648140;   57.259000
  4.8;    1.633200;    1.681900;   58.976000
  9.6;  -18.519000;    3.934300;   57.887000
 14.4;  -41.395000;    5.988800;   52.591000
 19.2;  -56.656000;    7.712400;   44.400000
 24.0;  -74.914000;    8.945800;   33.440000
 28.8;  -84.033000;    9.627600;   18.667000
 33.6;  -84.704000;    9.767600;    4.193700
 38.4;  -84.492000;    9.332200;   -9.447200
 43.2;  -82.136000;    8.347900;  -23.901000
 48.0;  -69.151000;    6.842000;  -38.062000
 52.8;  -51.121000;    4.932400;  -47.948000
 57.6;  -35.080000;    2.725600;  -55.282000
 62.4;  -11.206000;    0.341010;  -59.394000
 67.2;    7.908200;   -1.892700;  -59.483000
 72.0;   31.359000;   -4.018900;  -56.600000
 76.8;   49.446000;   -5.872400;  -49.427000
 81.6;   66.465000;   -7.362700;  -40.222000
 86.4;   82.194000;   -8.289100;  -26.669000
 91.2;   85.569000;   -8.692000;  -11.482000
 96.0;   85.370000;   -8.558400;    2.285700
100.8;   84.784000;   -7.853000;   16.185000
105.6;   77.904000;   -6.550500;   31.033000
110.4;   59.553000;   -4.796700;   43.317000
115.2;   43.764000;   -2.676500;   51.482000
120.0;   23.146000;   -0.412520;   57.527000
124.8;    1.142800;    1.882000;   59.178000
129.6;  -19.160000;    4.096000;   58.022000
134.4;  -42.031000;    6.085100;   52.629000
139.2;  -57.419000;    7.781900;   44.365000
144.0;  -75.977000;    8.971200;   33.217000
148.8;  -84.823000;    9.581700;   18.261000
153.6;  -85.320000;    9.697800;    3.732900
158.4;  -85.074000;    9.264700;   -9.965600
163.2;  -82.496000;    8.285200;  -24.533000
168.0;  -69.126000;    6.841600;  -38.593000
172.8;  -50.966000;    4.947300;  -48.344000
177.6;  -34.688000;    2.740900;  -55.603000
182.4;  -10.693000;    0.410090;  -59.557000
187.2;    8.487700;   -1.951300;  -59.563000
192.0;   31.981000;   -4.067800;  -56.599000
196.8;   49.921000;   -5.933300;  -49.338000
201.6;   66.883000;   -7.416500;  -40.111000
206.4;   82.350000;   -8.273500;  -26.552000
211.2;   85.632000;   -8.651300;  -11.409000
216.0;   85.415000;   -8.513600;    2.354500
220.8;   84.788000;   -7.836600;   16.222000
225.6;   77.919000;   -6.617800;   30.977000
230.4;   59.711000;   -4.967300;   43.230000
235.2;   43.903000;   -2.898600;   51.399000
240.0;   23.207000;   -0.735520;   57.424000
244.8;    1.095900;    1.623600;   59.050000
249.6;  -19.248000;    3.913400;   57.843000
254.4;  -42.029000;    5.959600;   52.428000
259.2;  -57.316000;    7.717300;   44.165000
264.0;  -75.454000;    8.945000;   33.139000
268.8;  -84.305000;    9.627600;   18.428000
273.6;  -84.887000;    9.785600;    3.952700
278.4;  -84.651000;    9.441300;   -9.627100
283.2;  -82.120000;    8.460700;  -24.108000
288.0;  -69.219000;    6.969700;  -38.014000
292.8;  -51.131000;    5.092600;  -47.871000
297.6;  -35.052000;    2.880500;  -55.186000
302.4;  -11.268000;    0.544890;  -59.243000
307.2;    7.913000;   -1.816500;  -59.343000
312.0;   31.191000;   -3.999400;  -56.462000
316.8;   49.275000;   -5.920600;  -49.295000
321.6;   65.951000;   -7.450100;  -40.148000
326.4;   81.489000;   -8.420600;  -26.781000
331.2;   85.000000;   -8.812300;  -11.768000
336.0;   84.836000;   -8.659900;    1.967600
340.8;   84.257000;   -7.952300;   15.782000
345.6;   77.608000;   -6.713400;   30.571000
350.4;   59.579000;   -4.979300;   42.917000
355.2;   43.882000;   -2.906500;   51.123000
360.0;   23.538000;   -0.614910;   57.220000
